47.288567
42.132584
53.028183
48.193100
26.152575
40.569626
59.710442
47.786285
21.912645
17.661375
46.906010
47.941097
42.209110
57.208363
49.731003
43.050121
52.955780
48.715565
57.421684
64.193001
44.540489
38.893440
52.544361
53.915226
53.820568
56.795414
50.035107
59.343681
49.387383
51.040936
53.812252
34.563919
43.813606
31.434099
58.885342
38.162842
70.244003
56.320850
43.870872
53.161915
42.660561
37.640480
55.140171
53.073185
33.078812
48.156605
53.337711
43.509579
49.756901
54.665531
53.742588
63.979378
40.492638
53.048927
50.067879
11.934381
52.709255
48.223846
37.840389
46.173378
38.739235
55.149998
42.274891
38.061031
49.592319
41.664505
43.297718
38.094658
59.428013
45.402489
32.466030
48.671268
55.412525
50.348759
41.751740
45.459648
45.573715
51.238804
55.774288
54.944149
44.383873
52.118008
41.201714
39.858601
38.066284
38.389072
44.071003
59.496883
49.899960
44.470997
42.451580
52.203220
50.528267
40.157459
51.944199
47.715317
24.696798
50.799282
38.977589
53.888096
42.114391
40.972439
45.999424
44.342354
42.410030
47.646854
43.031071
44.057266
43.969757
39.548859
33.622501
47.108849
51.787075
42.200840
51.008720
37.560291
41.617435
38.869724
2.592494
41.435051
39.319485
44.215954
41.137096
41.132008
45.355267
46.267159
43.448208
39.197899
38.731960
42.483212
37.856201
43.645332
55.057484
40.947624
44.204185
50.163475
46.316986
36.963055
16.784182
43.699780
46.754280
44.452312
39.317715
40.509811
42.710953
44.190231
36.968845
44.077419
41.626976
33.799580
39.609524
43.709122
46.754753
50.357212
44.190590
42.725475
42.987717
36.113361
41.585232
36.417110
36.207596
45.548641
54.092613
28.885593
43.745850
60.572319
33.785564
21.408857
47.108917
27.241549
46.726112
33.182007
41.297321
31.153044
23.806580
46.305450
30.640680
22.255613
46.602360
39.143570
20.021742
27.813580
30.530081
48.895870
20.309586
34.130665
40.917767
34.051483
40.118782
40.498745
37.160954
45.521824
19.786348
43.961620
21.608431
40.304768
51.409664
17.039675
49.582619
14.111012
22.290852
19.608702
21.341017
28.309183
35.626469
